time,x_pos,y_pos,velocity,rotation,action
0,0.728369,4.37296,0,5.27648,0
0.07261,0.746846,4.36856,0.216947,0,0
0.123953,0.765196,4.36418,0.30681,0,0
0.165874,0.783421,4.35982,0.375764,0,0
0.202179,0.801523,4.35548,0.433895,0,0
0.234652,0.819504,4.35116,0.485109,0,0
0.264295,0.837365,4.34686,0.53141,0,0
0.291739,0.855109,4.34258,0.573989,0,0
0.31741,0.872738,4.33833,0.61362,0,0
0.341613,0.890254,4.33409,0.650842,0,0
0.364575,0.907658,4.32988,0.686048,0,0
0.386467,0.924952,4.32569,0.719533,0,0
0.407428,0.942139,4.32152,0.751527,0,0
0.427567,0.959221,4.31737,0.782215,0,0
0.446972,0.976199,4.31324,0.811742,0,0
0.46572,0.993075,4.30914,0.840233,0,0
0.483873,1.00985,4.30505,0.867789,0,0
0.501483,1.02653,4.30099,0.894497,0,0
0.518598,1.04311,4.29696,0.920429,0,0
0.535256,1.0596,4.29294,0.945651,0,0
0.551492,1.076,4.28895,0.970218,0,0
0.567336,1.09231,4.28498,0.994177,0,0
0.582817,1.10853,4.28104,1.01757,0,0
0.597957,1.12466,4.27711,1.04044,0,0
0.612779,1.14071,4.27321,1.06282,0,0
0.627301,1.15668,4.26934,1.08474,0,0
0.641541,1.17257,4.26549,1.10622,0,0
0.655514,1.18838,4.26166,1.12729,0,0
0.669236,1.20411,4.25786,1.14798,0,0
0.68272,1.21977,4.25408,1.1683,0,0
0.695977,1.23535,4.25032,1.18827,0,0
0.709018,1.25087,4.24659,1.20791,0,0
0.721853,1.26632,4.24289,1.22724,0,0
0.734493,1.2817,4.23921,1.24627,0,0
0.746946,1.29702,4.23555,1.26501,0,0
0.759219,1.31227,4.23192,1.28348,0,0
0.771321,1.32747,4.22832,1.30168,0,0
0.783258,1.3426,4.22474,1.31964,0,0
0.795037,1.35768,4.22118,1.33735,0,0
0.806664,1.37271,4.21765,1.35484,0,0
0.818144,1.38768,4.21415,1.37209,0,0
0.829484,1.4026,4.21067,1.38914,0,0
0.840688,1.41747,4.20723,1.40598,0,0
0.851761,1.4323,4.2038,1.42262,0,0
0.862707,1.44708,4.20041,1.43907,0,0
0.873531,1.46181,4.19703,1.45533,0,0
0.884237,1.47651,4.19369,1.47141,0,0
0.894828,1.49117,4.19037,1.48732,0,0
0.905309,1.50579,4.18709,1.50305,0,0
0.915682,1.52037,4.18382,1.51863,0,0
0.92595,1.53493,4.18059,1.53405,0,0
0.936118,1.54945,4.17738,1.54931,0,0
0.946187,1.56394,4.1742,1.56443,0,0
0.956161,1.5784,4.17105,1.5794,0,0
0.966042,1.59284,4.16793,1.59423,0,0
0.975832,1.60726,4.16483,1.60892,0,0
0.985535,1.62166,4.16177,1.62348,0,0
0.995153,1.63603,4.15873,1.63792,0,0
1.00469,1.65039,4.15572,1.65222,0,0
1.01422,1.66473,4.15274,1.65222,0,0
1.02384,1.67906,4.14979,1.63792,0,0
1.03354,1.69338,4.14686,1.62348,0,0
1.04333,1.70768,4.14397,1.60892,0,0
1.05321,1.72198,4.14111,1.59423,0,0
1.06319,1.73628,4.13827,1.5794,0,0
1.07326,1.75057,4.13547,1.56443,0,0
1.08342,1.76486,4.13269,1.54931,0,0
1.09369,1.77915,4.12995,1.53405,0,0
1.10407,1.79344,4.12723,1.51863,0,0
1.11455,1.80773,4.12455,1.50305,0,0
1.12514,1.82203,4.1219,1.48732,0,0
1.13584,1.83634,4.11927,1.47141,0,0
1.14667,1.85066,4.11668,1.45533,0,0
1.15761,1.86499,4.11412,1.43907,0,0
1.16869,1.87934,4.11159,1.42262,0,0
1.17989,1.8937,4.10909,1.40598,0,0
1.19123,1.90807,4.10663,1.38914,0,0
1.20271,1.92247,4.10419,1.37209,0,0
1.21434,1.93689,4.10179,1.35484,0,0
1.22612,1.95134,4.09941,1.33735,0,0
1.23805,1.9658,4.09707,1.31964,0,0
1.25015,1.9803,4.09477,1.30168,0,0
1.26243,1.99483,4.09249,1.28348,0,0
1.27488,2.00938,4.09025,1.26501,0,0
1.28752,2.02398,4.08804,1.24627,0,0
1.30036,2.0386,4.08586,1.22724,0,0
1.3134,2.05326,4.08372,1.20791,0,0
1.32665,2.06797,4.08161,1.18827,0,0
1.34014,2.08271,4.07953,1.1683,0,0
1.35386,2.0975,4.07748,1.14798,0,0
1.36783,2.11233,4.07547,1.12729,0,0
1.38207,2.12721,4.0735,1.10622,0,0
1.3966,2.14214,4.07155,1.08474,0,0
1.41142,2.15712,4.06964,1.06282,0,0
1.42656,2.17215,4.06777,1.04044,0,0
1.44204,2.18724,4.06593,1.01757,0,0
1.45788,2.20238,4.06412,0.994177,0,0
1.47412,2.21759,4.06235,0.970218,0,0
1.49078,2.23285,4.06061,0.945651,0,0
1.50789,2.24818,4.05891,0.920429,0,0
1.5255,2.26357,4.05725,0.894497,0,0
1.54365,2.27903,4.05561,0.867789,0,0
1.5624,2.29456,4.05402,0.840233,0,0
1.58181,2.31016,4.05246,0.811742,0,0
1.60195,2.32583,4.05093,0.782215,0,0
1.62291,2.34157,4.04944,0.751527,0,0
1.6448,2.35739,4.04799,0.719533,0,0
1.66776,2.37329,4.04657,0.686048,0,0
1.69196,2.38927,4.04519,0.650842,0,0
1.71764,2.40534,4.04385,0.61362,0,0
1.74508,2.42148,4.04254,0.573989,0,0
1.77472,2.43772,4.04127,0.53141,0,0
1.80719,2.45404,4.04004,0.485109,0,0
1.8435,2.47045,4.03884,0.433895,0,0
1.88542,2.48695,4.03768,0.375764,0,0
1.93676,2.50355,4.03656,0.30681,0,0
2.00937,2.52024,4.03548,0.216947,0,0
2.00937,2.53704,4.03443,0,5.27642,0
2.0814,2.52702,4.035,0.216947,5.27642,0
2.13233,2.51681,4.03563,0.30681,5.27642,0
2.17391,2.5064,4.03631,0.375764,5.27642,0
2.20992,2.4958,4.03704,0.433895,5.27642,0
2.24213,2.48502,4.03783,0.485109,5.27642,0
2.27154,2.47405,4.03867,0.53141,5.27642,0
2.29876,2.46289,4.03956,0.573989,5.27642,0
2.32422,2.45156,4.04051,0.61362,5.27642,0
2.34823,2.44004,4.04151,0.650842,5.27642,0
2.37101,2.42836,4.04256,0.686048,5.27642,0
2.39272,2.4165,4.04366,0.719533,5.27642,0
2.41351,2.40447,4.04482,0.751527,5.27642,0
2.43349,2.39227,4.04602,0.782215,5.27642,0
2.45274,2.37992,4.04728,0.811742,5.27642,0
2.47134,2.3674,4.04858,0.840233,5.27642,0
2.48934,2.35472,4.04993,0.867789,5.27642,0
2.50681,2.34188,4.05134,0.894497,5.27642,0
2.52379,2.3289,4.05279,0.920429,5.27642,0
2.54031,2.31576,4.05429,0.945651,5.27642,0
2.55641,2.30248,4.05584,0.970218,5.27642,0
2.57213,2.28905,4.05743,0.994177,5.27642,0
2.58749,2.27548,4.05908,1.01757,5.27642,0
2.60251,2.26177,4.06077,1.04044,5.27642,0
2.61721,2.24792,4.0625,1.06282,5.27642,0
2.63161,2.23394,4.06429,1.08474,5.27642,0
2.64574,2.21983,4.06611,1.10622,5.27642,0
2.6596,2.2056,4.06799,1.12729,5.27642,0
2.67321,2.19123,4.0699,1.14798,5.27642,0
2.68658,2.17674,4.07187,1.1683,5.27642,0
2.69973,2.16214,4.07387,1.18827,5.27642,0
2.71267,2.14741,4.07592,1.20791,5.27642,0
2.7254,2.13258,4.07802,1.22724,5.27642,0
2.73794,2.11762,4.08015,1.24627,5.27642,0
2.75029,2.10257,4.08233,1.26501,5.27642,0
2.76247,2.0874,4.08455,1.28348,5.27642,0
2.77447,2.07213,4.08681,1.30168,5.27642,0
2.78631,2.05676,4.08912,1.31964,5.27642,0
2.79799,2.04129,4.09146,1.33735,5.27642,0
2.80953,2.02573,4.09385,1.35484,5.27642,0
2.82091,2.01007,4.09627,1.37209,5.27642,0
2.83216,1.99433,4.09874,1.38914,5.27642,0
2.84328,1.97849,4.10124,1.40598,5.27642,0
2.85426,1.96258,4.10379,1.42262,5.27642,0
2.86512,1.94658,4.10637,1.43907,5.27642,0
2.87586,1.9305,4.10899,1.45533,5.27642,0
2.88647,1.91434,4.11165,1.47141,5.27642,0
2.89698,1.89812,4.11434,1.48732,5.27642,0
2.90738,1.88182,4.11708,1.50305,5.27642,0
2.91767,1.86545,4.11984,1.51863,5.27642,0
2.92785,1.84902,4.12265,1.53405,5.27642,0
2.93794,1.83252,4.12549,1.54931,5.27642,0
2.94792,1.81597,4.12837,1.56443,5.27642,0
2.95782,1.79936,4.13128,1.5794,5.27642,0
2.96762,1.78269,4.13423,1.59423,5.27642,0
2.97733,1.76598,4.13721,1.60892,5.27642,0
2.98696,1.74921,4.14022,1.62348,5.27642,0
2.9965,1.7324,4.14327,1.63792,5.27642,0
3.00595,1.71554,4.14635,1.65222,5.27642,0
3.01541,1.69865,4.14946,1.65222,5.27642,0
3.02495,1.68171,4.15261,1.63792,5.27642,0
3.03457,1.66474,4.15579,1.62348,5.27642,0
3.04429,1.64774,4.159,1.60892,5.27642,0
3.05409,1.63071,4.16224,1.59423,5.27642,0
3.06398,1.61365,4.16551,1.5794,5.27642,0
3.07397,1.59657,4.16881,1.56443,5.27642,0
3.08405,1.57947,4.17215,1.54931,5.27642,0
3.09424,1.56235,4.17551,1.53405,5.27642,0
3.10453,1.54521,4.1789,1.51863,5.27642,0
3.11492,1.52806,4.18232,1.50305,5.27642,0
3.12543,1.51089,4.18577,1.48732,5.27642,0
3.13605,1.49372,4.18924,1.47141,5.27642,0
3.14679,1.47655,4.19275,1.45533,5.27642,0
3.15764,1.45937,4.19628,1.43907,5.27642,0
3.16863,1.44219,4.19983,1.42262,5.27642,0
3.17974,1.42502,4.20342,1.40598,5.27642,0
3.19099,1.40785,4.20703,1.38914,5.27642,0
3.20238,1.39069,4.21066,1.37209,5.27642,0
3.21391,1.37354,4.21433,1.35484,5.27642,0
3.2256,1.35641,4.21801,1.33735,5.27642,0
3.23744,1.33929,4.22172,1.31964,5.27642,0
3.24944,1.3222,4.22546,1.30168,5.27642,0
3.26161,1.30512,4.22922,1.28348,5.27642,0
3.27397,1.28807,4.233,1.26501,5.27642,0
3.2865,1.27105,4.2368,1.24627,5.27642,0
3.29924,1.25406,4.24063,1.22724,5.27642,0
3.31217,1.2371,4.24448,1.20791,5.27642,0
3.32532,1.22018,4.24835,1.18827,5.27642,0
3.3387,1.20329,4.25224,1.1683,5.27642,0
3.35231,1.18645,4.25616,1.14798,5.27642,0
3.36617,1.16965,4.26009,1.12729,5.27642,0
3.38029,1.1529,4.26405,1.10622,5.27642,0
3.3947,1.1362,4.26802,1.08474,5.27642,0
3.4094,1.11955,4.27202,1.06282,5.27642,0
3.42442,1.10296,4.27603,1.04044,5.27642,0
3.43977,1.08642,4.28006,1.01757,5.27642,0
3.45549,1.06995,4.28411,0.994177,5.27642,0
3.4716,1.05353,4.28818,0.970218,5.27642,0
3.48812,1.03719,4.29226,0.945651,5.27642,0
3.5051,1.02091,4.29637,0.920429,5.27642,0
3.52256,1.00471,4.30048,0.894497,5.27642,0
3.54057,0.988575,4.30462,0.867789,5.27642,0
3.55917,0.972521,4.30877,0.840233,5.27642,0
3.57842,0.956547,4.31294,0.811742,5.27642,0
3.59839,0.940655,4.31712,0.782215,5.27642,0
3.61918,0.924849,4.32132,0.751527,5.27642,0
3.6409,0.90913,4.32553,0.719533,5.27642,0
3.66367,0.893503,4.32975,0.686048,5.27642,0
3.68768,0.877968,4.33399,0.650842,5.27642,0
3.71315,0.86253,4.33824,0.61362,5.27642,0
3.74037,0.847191,4.34251,0.573989,5.27642,0
3.76977,0.831954,4.34678,0.53141,5.27642,0
3.80198,0.816821,4.35107,0.485109,5.27642,0
3.838,0.801795,4.35537,0.433895,5.27642,0
3.87958,0.786879,4.35968,0.375764,5.27642,0
3.93051,0.772076,4.36401,0.30681,5.27642,0
4.00253,0.757388,4.36834,0.216947,5.27642,0
4.00253,0.742818,4.37268,0,5.27642,0
